wavelength,reflectivity
320.0,0.2845
321.0,0.2829
322.0,0.283
323.0,0.2849
324.0,0.2883
325.0,0.2893
326.0,0.2901
327.0,0.2914
328.0,0.2944
329.0,0.2977
330.0,0.3013
331.0,0.3055
332.0,0.3081
333.0,0.3097
334.0,0.3124
335.0,0.3172
336.0,0.3213
337.0,0.3228
338.0,0.3236
339.0,0.3259
340.0,0.3284
341.0,0.3304
342.0,0.3316
343.0,0.3333
344.0,0.3355
345.0,0.3393
346.0,0.3436
347.0,0.3479
348.0,0.3505
349.0,0.3509
350.0,0.3528
351.0,0.3579
352.0,0.3625
353.0,0.3628
354.0,0.3607
355.0,0.3624
356.0,0.3681
357.0,0.3734
358.0,0.3754
359.0,0.3769
360.0,0.3795
361.0,0.381
362.0,0.3799
363.0,0.3804
364.0,0.3817
365.0,0.3835
366.0,0.3853
367.0,0.3888
368.0,0.3931
369.0,0.3968
370.0,0.3999
371.0,0.4032
372.0,0.4062
373.0,0.4105
374.0,0.4134
375.0,0.4144
376.0,0.4134
377.0,0.4137
378.0,0.4156
379.0,0.4172
380.0,0.4202
381.0,0.4262
382.0,0.4324
383.0,0.4354
384.0,0.4351
385.0,0.4359
386.0,0.4381
387.0,0.4404
388.0,0.4424
389.0,0.4428
390.0,0.4425
391.0,0.4454
392.0,0.4551
393.0,0.4622
394.0,0.4623
395.0,0.4621
396.0,0.4666
397.0,0.4692
398.0,0.4667
399.0,0.4639
400.0,0.4654
401.0,0.4665
402.0,0.4681
403.0,0.4709
404.0,0.4752
405.0,0.4777
406.0,0.4804
407.0,0.4837
408.0,0.4881
409.0,0.4917
410.0,0.4935
411.0,0.4952
412.0,0.4967
413.0,0.4994
414.0,0.5029
415.0,0.5067
416.0,0.5098
417.0,0.5125
418.0,0.5152
419.0,0.518
420.0,0.521
421.0,0.5235
422.0,0.526
423.0,0.5296
424.0,0.5328
425.0,0.535
426.0,0.5362
427.0,0.5382
428.0,0.5408
429.0,0.5456
430.0,0.5494
431.0,0.5511
432.0,0.5508
433.0,0.5514
434.0,0.5528
435.0,0.5542
436.0,0.5561
437.0,0.5583
438.0,0.5603
439.0,0.5614
440.0,0.5634
441.0,0.5652
442.0,0.5666
443.0,0.5667
444.0,0.5682
445.0,0.5716
446.0,0.5748
447.0,0.5777
448.0,0.5799
449.0,0.5827
450.0,0.5846
451.0,0.5854
452.0,0.5864
453.0,0.5882
454.0,0.5904
455.0,0.5913
456.0,0.5914
457.0,0.5922
458.0,0.5938
459.0,0.5954
460.0,0.5976
461.0,0.6007
462.0,0.6041
463.0,0.6068
464.0,0.6081
465.0,0.6099
466.0,0.6117
467.0,0.6126
468.0,0.6134
469.0,0.6144
470.0,0.6165
471.0,0.6184
472.0,0.6204
473.0,0.6209
474.0,0.6207
475.0,0.6216
476.0,0.6233
477.0,0.6241
478.0,0.6243
479.0,0.6253
480.0,0.6265
481.0,0.6269
482.0,0.6275
483.0,0.627
484.0,0.6248
485.0,0.6252
486.0,0.6294
487.0,0.6347
488.0,0.6368
489.0,0.6364
490.0,0.6367
491.0,0.6385
492.0,0.6409
493.0,0.6424
494.0,0.6441
495.0,0.646
496.0,0.6484
497.0,0.6498
498.0,0.6499
499.0,0.6494
500.0,0.6496
501.0,0.6508
502.0,0.6526
503.0,0.6542
504.0,0.6546
505.0,0.6543
506.0,0.6537
507.0,0.6541
508.0,0.6538
509.0,0.653
510.0,0.6535
511.0,0.6552
512.0,0.6583
513.0,0.6616
514.0,0.6641
515.0,0.6664
516.0,0.668
517.0,0.6682
518.0,0.6661
519.0,0.663
520.0,0.6634
521.0,0.6659
522.0,0.667
523.0,0.6663
524.0,0.6666
525.0,0.6686
526.0,0.6702
527.0,0.6706
528.0,0.6712
529.0,0.6713
530.0,0.6714
531.0,0.6728
532.0,0.6748
533.0,0.6745
534.0,0.6724
535.0,0.6698
536.0,0.6677
537.0,0.6646
538.0,0.661
539.0,0.6567
540.0,0.6508
541.0,0.6442
542.0,0.6402
543.0,0.6406
544.0,0.6481
545.0,0.6597
546.0,0.6725
547.0,0.6794
548.0,0.6783
549.0,0.6725
550.0,0.6687
551.0,0.6681
552.0,0.6689
553.0,0.6709
554.0,0.6771
555.0,0.6841
556.0,0.6891
557.0,0.6907
558.0,0.6936
559.0,0.6963
560.0,0.698
561.0,0.6979
562.0,0.6982
563.0,0.701
564.0,0.7031
565.0,0.7041
566.0,0.7013
567.0,0.698
568.0,0.6962
569.0,0.6966
570.0,0.6972
571.0,0.6978
572.0,0.6974
573.0,0.695
574.0,0.6906
575.0,0.688
576.0,0.6897
577.0,0.6933
578.0,0.697
579.0,0.6996
580.0,0.7023
581.0,0.7053
582.0,0.7075
583.0,0.7079
584.0,0.7077
585.0,0.7078
586.0,0.706
587.0,0.7015
588.0,0.6963
589.0,0.694
590.0,0.6943
591.0,0.694
592.0,0.6936
593.0,0.6925
594.0,0.692
595.0,0.6926
596.0,0.6939
597.0,0.6951
598.0,0.6952
599.0,0.6959
600.0,0.6973
601.0,0.6973
602.0,0.6962
603.0,0.6958
604.0,0.6958
605.0,0.6931
606.0,0.6897
607.0,0.6893
608.0,0.6908
609.0,0.6908
610.0,0.6888
611.0,0.6758
612.0,0.6574
613.0,0.6378
614.0,0.6173
615.0,0.6013
616.0,0.5824
617.0,0.5653
618.0,0.5604
619.0,0.5617
620.0,0.5736
621.0,0.5905
622.0,0.6122
623.0,0.6336
624.0,0.6507
625.0,0.6688
626.0,0.6767
627.0,0.6795
628.0,0.6859
629.0,0.6958
630.0,0.6988
631.0,0.6998
632.0,0.7003
633.0,0.6999
634.0,0.6983
635.0,0.6963
636.0,0.6938
637.0,0.6917
638.0,0.6892
639.0,0.686
640.0,0.6783
641.0,0.6664
642.0,0.6404
643.0,0.6193
644.0,0.6208
645.0,0.6336
646.0,0.6257
647.0,0.6256
648.0,0.635
649.0,0.6439
650.0,0.6537
651.0,0.6629
652.0,0.6689
653.0,0.6706
654.0,0.6709
655.0,0.6711
656.0,0.6711
657.0,0.6711
658.0,0.6699
659.0,0.6689
660.0,0.6725
661.0,0.6741
662.0,0.6734
663.0,0.6681
664.0,0.6657
665.0,0.6631
666.0,0.6636
667.0,0.6648
668.0,0.6709
669.0,0.6781
670.0,0.6837
671.0,0.6907
672.0,0.6977
673.0,0.7038
674.0,0.7099
675.0,0.717
676.0,0.7199
677.0,0.7183
678.0,0.7169
679.0,0.715
680.0,0.7077
681.0,0.6995
682.0,0.6929
683.0,0.6923
684.0,0.6971
685.0,0.7002
686.0,0.7017
687.0,0.7006
688.0,0.7044
689.0,0.7038
690.0,0.7038
691.0,0.6993
692.0,0.6897
693.0,0.6821
694.0,0.6781
695.0,0.676
696.0,0.6701
697.0,0.6547
698.0,0.6386
699.0,0.6273
700.0,0.6176
701.0,0.612
702.0,0.6079
703.0,0.6072
704.0,0.6095
705.0,0.6165
706.0,0.6247
707.0,0.6328
708.0,0.6374
709.0,0.646
710.0,0.6515
711.0,0.6531
712.0,0.6576
713.0,0.66
714.0,0.6424
715.0,0.6161
716.0,0.5831
717.0,0.5493
718.0,0.5109
719.0,0.4828
720.0,0.4595
721.0,0.4392
722.0,0.4123
723.0,0.3807
724.0,0.3526
725.0,0.3285
726.0,0.3147
727.0,0.3201
728.0,0.3457
729.0,0.3788
730.0,0.4101
731.0,0.446
732.0,0.4755
733.0,0.5007
734.0,0.5248
735.0,0.5477
736.0,0.5679
737.0,0.5896
738.0,0.6109
739.0,0.6326
740.0,0.6482
741.0,0.6617
742.0,0.6705
743.0,0.6776
744.0,0.6851
745.0,0.6852
746.0,0.6812
747.0,0.6822
748.0,0.6827
749.0,0.6827
750.0,0.6832
751.0,0.6783
752.0,0.6719
753.0,0.6677
754.0,0.6632
755.0,0.6561
756.0,0.6459
757.0,0.6338
758.0,0.6273
759.0,0.6075
760.0,0.5883
761.0,0.5843
762.0,0.5839
763.0,0.5893
764.0,0.5921
765.0,0.5963
766.0,0.5947
767.0,0.596
768.0,0.6012
769.0,0.607
770.0,0.6105
771.0,0.6058
772.0,0.6087
773.0,0.6077
774.0,0.603
775.0,0.596
776.0,0.5882
777.0,0.5798
778.0,0.566
779.0,0.5447
780.0,0.5284
781.0,0.5132
782.0,0.4934
783.0,0.4732
784.0,0.4653
785.0,0.457
786.0,0.4524
787.0,0.4587
788.0,0.4653
789.0,0.4663
790.0,0.4592
791.0,0.4533
792.0,0.4584
793.0,0.466
794.0,0.4673
795.0,0.4691
796.0,0.4723
797.0,0.4772
798.0,0.4839
799.0,0.4887
800.0,0.4992
801.0,0.511
802.0,0.5261
803.0,0.5389
804.0,0.554
805.0,0.5699
806.0,0.5754
807.0,0.5818
808.0,0.5844
809.0,0.5903
810.0,0.6023
811.0,0.6092
812.0,0.6116
813.0,0.6192
814.0,0.6204
815.0,0.6203
816.0,0.6273
817.0,0.6319
818.0,0.6369
819.0,0.644
820.0,0.6542
821.0,0.6597
822.0,0.66
823.0,0.6653
824.0,0.6656
825.0,0.6676
826.0,0.6711
827.0,0.6739
828.0,0.6761
829.0,0.6739
830.0,0.6747
831.0,0.6768
832.0,0.6704
833.0,0.6578
834.0,0.6384
835.0,0.6195
836.0,0.5938
837.0,0.562
838.0,0.5589
839.0,0.556
840.0,0.5375
841.0,0.5536
842.0,0.5793
843.0,0.5783
844.0,0.591
845.0,0.6089
846.0,0.6136
847.0,0.6176
848.0,0.6197
849.0,0.6199
850.0,0.6154
851.0,0.6008
852.0,0.573
853.0,0.5464
854.0,0.5222
855.0,0.4877
856.0,0.4549
857.0,0.428
858.0,0.4061
859.0,0.3668
860.0,0.3339
861.0,0.3044
862.0,0.29
863.0,0.2868
864.0,0.2913
865.0,0.3094
866.0,0.3416
867.0,0.3632
868.0,0.3874
869.0,0.4045
870.0,0.4243
871.0,0.4505
872.0,0.4659
873.0,0.4712
874.0,0.4713
875.0,0.4683
876.0,0.4547
877.0,0.4415
878.0,0.3838
879.0,0.3083
880.0,0.2209
881.0,0.1591
882.0,0.1133
883.0,0.0976
884.0,0.1087
885.0,0.1159
886.0,0.1009
887.0,0.0782
888.0,0.0793
889.0,0.0959
890.0,0.1016
891.0,0.1052
892.0,0.1087
893.0,0.1066
894.0,0.1027
895.0,0.1093
896.0,0.1303
897.0,0.1494
898.0,0.1523
899.0,0.1607
900.0,0.1796
901.0,0.214
902.0,0.2488
903.0,0.2916
904.0,0.3387
905.0,0.3773
906.0,0.41
907.0,0.445
908.0,0.4764
909.0,0.4982
910.0,0.4986
911.0,0.4943
912.0,0.4994
913.0,0.5167
914.0,0.5175
915.0,0.5202
916.0,0.5424
917.0,0.5722
918.0,0.5779
919.0,0.5689
920.0,0.5657
921.0,0.5593
922.0,0.5569
923.0,0.556
924.0,0.5451
925.0,0.5463
926.0,0.5574
927.0,0.5609
928.0,0.5544
929.0,0.5601
930.0,0.5655
931.0,0.5675
932.0,0.5728
933.0,0.5831
934.0,0.5901
935.0,0.5877
936.0,0.594
937.0,0.61
938.0,0.6254
939.0,0.6254
940.0,0.6305
941.0,0.6375
942.0,0.634
943.0,0.6417
944.0,0.6404
945.0,0.6409
946.0,0.6269
947.0,0.6159
948.0,0.6273
949.0,0.6303
950.0,0.6106
951.0,0.609
952.0,0.6327
953.0,0.6299
954.0,0.6169
955.0,0.6038
956.0,0.5924
957.0,0.5909
958.0,0.5748
959.0,0.5394
960.0,0.5137
961.0,0.478
962.0,0.4291
963.0,0.3904
964.0,0.3686
965.0,0.3546
966.0,0.3516
967.0,0.3494
968.0,0.3295
969.0,0.3041
970.0,0.2713
971.0,0.2807
972.0,0.3094
973.0,0.3118
974.0,0.3094
975.0,0.3173
976.0,0.3228
977.0,0.3127
978.0,0.303
979.0,0.2976
980.0,0.2783
981.0,0.2463
982.0,0.219
983.0,0.203
984.0,0.2028
985.0,0.2091
986.0,0.1947
987.0,0.1588
988.0,0.1393
989.0,0.1414
990.0,0.1553
991.0,0.1702
992.0,0.1826
993.0,0.1837
994.0,0.1782
995.0,0.1668
996.0,0.1718
997.0,0.1936
998.0,0.1932
999.0,0.2048
